Created as New Dataset;
s;A
0,00;-0,0006
1,00;-0,0003
2,00;-0,0003
3,00;-0,0003
4,00;-0,0003
5,00;-0,0003
6,00;-0,0003
7,00;-0,0000
8,00;-0,0003
9,00;-0,0003
10,00;-0,0003
11,00;-0,0003
12,00;-0,0003
13,00;-0,0003
14,00;-0,0003
15,00;-0,0003
16,00;-0,0003
17,00;-0,0003
18,00;-0,0003
19,00;-0,0003
20,00;-0,0003
21,00;-0,0000
22,00;-0,0000
23,00;-0,0003
24,00;-0,0003
25,00;-0,0000
26,00;-0,0003
27,00;-0,0003
28,00;-0,0003
29,00;-0,0003
30,00;-0,0000
31,00;-0,0003
32,00;-0,0003
33,00;-0,0003
34,00;-0,0003
35,00;-0,0003
36,00;-0,0003
37,00;-0,0003
38,00;-0,0003
39,00;-0,0003
40,00;-0,0000
41,00;-0,0000
42,00;-0,0000
43,00;-0,0000
44,00;-0,0000
45,00;-0,0003
46,00;-0,0000
47,00;-0,0003
48,00;-0,0003
49,00;-0,0000
50,00;-0,0000
51,00;-0,0003
52,00;-0,0000
53,00;-0,0000
54,00;-0,0003
55,00;-0,0003
56,00;-0,0003
57,00;-0,0003
58,00;-0,0003
59,00;-0,0000
60,00;-0,0000
61,00;-0,0003
62,00;-0,0003
63,00;-0,0000
64,00;-0,0003
65,00;-0,0003
66,00;-0,0000
67,00;-0,0000
68,00;-0,0003
69,00;-0,0003
70,00;-0,0003
71,00;-0,0003
72,00;-0,0003
73,00;-0,0003
74,00;-0,0000
75,00;-0,0000
76,00;-0,0000
77,00;-0,0003
78,00;-0,0000
79,00;-0,0000
80,00;-0,0003
81,00;-0,0003
82,00;-0,0003
83,00;-0,0003
84,00;-0,0003
85,00;-0,0003
86,00;-0,0003
87,00;-0,0000
88,00;-0,0003
89,00;-0,0003
90,00;-0,0000
91,00;-0,0003
92,00;-0,0003
93,00;-0,0003
94,00;-0,0000
95,00;-0,0000
96,00;-0,0003
97,00;-0,0003
98,00;-0,0003
99,00;-0,0006
100,00;-0,0003
101,00;-0,0003
102,00;-0,0003
103,00;-0,0000
104,00;-0,0003
105,00;-0,0003
106,00;-0,0000
107,00;-0,0000
108,00;-0,0000
109,00;-0,0000
110,00;-0,0000
111,00;-0,0000
112,00;-0,0003
113,00;-0,0003
114,00;-0,0003
115,00;-0,0000
116,00;-0,0000
117,00;-0,0000
118,00;-0,0000
119,00;-0,0000
120,00;-0,0000
121,00;-0,0000
122,00;-0,0003
123,00;-0,0003
124,00;-0,0003
125,00;-0,0000
126,00;-0,0000
127,00;-0,0000
128,00;-0,0003
129,00;-0,0000
130,00;-0,0000
131,00;-0,0000
132,00;0,0003
133,00;-0,0000
134,00;-0,0000
135,00;-0,0003
136,00;-0,0003
137,00;-0,0003
138,00;-0,0000
139,00;-0,0003
140,00;-0,0003
141,00;-0,0003
142,00;-0,0003
143,00;-0,0000
144,00;-0,0003
145,00;-0,0003
146,00;-0,0003
147,00;-0,0000
148,00;-0,0003
149,00;-0,0003
150,00;-0,0000
151,00;-0,0003
152,00;-0,0003
153,00;-0,0003
154,00;-0,0003
155,00;-0,0003
156,00;-0,0000
157,00;-0,0000
158,00;-0,0003
159,00;-0,0003
160,00;-0,0000
161,00;-0,0000
162,00;-0,0003
163,00;-0,0000
164,00;-0,0000
165,00;-0,0000
166,00;-0,0003
167,00;-0,0000
168,00;-0,0003
169,00;-0,0003
170,00;-0,0000
171,00;-0,0000
172,00;-0,0000
173,00;-0,0003
174,00;-0,0003
175,00;-0,0006
176,00;-0,0003
177,00;-0,0003
178,00;-0,0006
179,00;-0,0003
180,00;-0,0003
181,00;-0,0003
182,00;-0,0003
183,00;-0,0000
184,00;-0,0003
185,00;-0,0003
186,00;-0,0003
187,00;-0,0000
188,00;-0,0003
189,00;-0,0003
190,00;-0,0003
191,00;-0,0000
192,00;-0,0000
193,00;-0,0003
194,00;-0,0000
195,00;-0,0003
196,00;-0,0000
197,00;-0,0003
198,00;-0,0003
199,00;-0,0000
200,00;-0,0003
201,00;-0,0000
202,00;-0,0000
203,00;-0,0000
204,00;-0,0000
205,00;-0,0000
206,00;-0,0000
207,00;-0,0000
208,00;-0,0003
209,00;-0,0000
210,00;-0,0000
211,00;-0,0000
212,00;-0,0000
213,00;-0,0003
214,00;-0,0003
215,00;-0,0003
216,00;-0,0000
217,00;-0,0003
218,00;-0,0000
219,00;-0,0000
220,00;-0,0003
221,00;-0,0003
222,00;-0,0000
223,00;-0,0000
224,00;-0,0003
225,00;-0,0000
226,00;-0,0000
227,00;0,0363
228,00;0,0050
229,00;0,0019
230,00;0,0025
231,00;0,0034
232,00;0,0044
233,00;0,0044
234,00;0,0041
235,00;0,4152
236,00;0,7154
237,00;0,5865
238,00;0,5712
239,00;0,5712
240,00;0,5712
241,00;0,5700
242,00;0,7892
243,00;0,5937
244,00;0,8313
245,00;1,6681
246,00;1,4462
247,00;1,0448
248,00;0,9868
249,00;0,9808
250,00;1,1540
251,00;1,7650
252,00;1,0448
253,00;0,7873
254,00;0,6710
255,00;0,6254
256,00;0,6189
257,00;0,6202
258,00;0,9577
259,00;1,4920
260,00;0,8251
261,00;0,6011
262,00;0,5700
263,00;0,5677
264,00;0,5677
265,00;0,5723
266,00;0,9465
267,00;0,9411
268,00;0,6124
269,00;0,5666
270,00;0,5643
271,00;0,5643
272,00;0,5666
273,00;0,5677
274,00;0,6724
275,00;1,4048
276,00;2,1452
277,00;0,6497
278,00;0,5631
279,00;0,5575
280,00;0,5564
281,00;0,5541
282,00;0,9122
283,00;1,8230
284,00;0,9046
285,00;0,6904
286,00;0,6666
287,00;0,6623
288,00;0,6638
289,00;0,6681
290,00;0,6739
291,00;0,6798
292,00;0,6888
293,00;0,6996
294,00;0,7106
295,00;0,7203
296,00;0,7286
297,00;0,7370
298,00;0,7438
299,00;0,7490
300,00;0,7525
301,00;0,7578
302,00;0,7560
303,00;0,7525
304,00;0,7404
305,00;0,7269
306,00;0,7138
307,00;0,7012
308,00;0,6858
309,00;0,6681
310,00;0,6497
311,00;0,6400
312,00;0,6320
313,00;0,6202
314,00;0,6086
315,00;0,5987
316,00;0,5712
317,00;0,5442
318,00;0,5261
319,00;0,5087
320,00;0,4949
321,00;0,4777
322,00;0,4595
323,00;0,4317
324,00;0,3986
325,00;0,3606
326,00;0,3445
327,00;0,3363
328,00;0,3309
329,00;0,3026
330,00;0,2576
331,00;0,2107
332,00;0,1698
333,00;0,1362
334,00;0,1046
335,00;0,0789
336,00;0,0606
337,00;0,0483
338,00;0,0393
339,00;0,0329
340,00;0,0283
341,00;0,0243
342,00;0,0207
343,00;0,0181
344,00;0,0158
345,00;0,0139
346,00;0,0123
347,00;0,0110
348,00;0,0101
349,00;0,0088
350,00;0,0078
351,00;0,0069
352,00;0,0063
353,00;0,0059
354,00;0,0053
355,00;0,0053
356,00;0,0050
357,00;0,0047
358,00;0,0041
359,00;0,0037
360,00;0,0034
361,00;0,0031
362,00;0,0031
363,00;0,0031
364,00;0,0028
365,00;0,0025
366,00;0,0028
367,00;0,0025
368,00;0,0022
369,00;0,0025
370,00;0,0025
371,00;0,0025
372,00;0,0022
373,00;0,0022
374,00;0,0022
375,00;0,0019
376,00;0,0022
377,00;0,0022
378,00;0,0022
379,00;0,0022
380,00;0,0022
381,00;0,0022
382,00;0,0022
383,00;0,0022
384,00;0,0019
385,00;0,0022
386,00;0,0019
387,00;0,0022
388,00;0,0019
389,00;0,0019
390,00;0,0019
391,00;0,0019
392,00;0,0019
393,00;0,0016
394,00;0,0019
395,00;0,0019
396,00;0,0019
397,00;0,0019
398,00;0,0022
399,00;0,0022
400,00;0,0022
401,00;0,0019
402,00;0,0019
403,00;0,0019
404,00;0,0019
405,00;0,0019
406,00;0,0022
407,00;0,0025
408,00;0,0022
409,00;0,0022
410,00;0,0022
411,00;0,0022
412,00;0,0019
413,00;0,0019
414,00;0,0019
415,00;0,0019
416,00;0,0019
417,00;0,0019
418,00;0,0019
419,00;0,0022
420,00;0,0022
421,00;0,0022
422,00;0,0019
423,00;0,0019
424,00;0,0019
425,00;0,0022
426,00;0,0019
427,00;0,0019
428,00;0,0019
429,00;0,0019
430,00;0,0019
431,00;0,0019
432,00;0,0019
433,00;0,0022
434,00;0,0022
435,00;0,0019
436,00;0,0019
437,00;0,0019
438,00;0,0022
439,00;0,0019
440,00;0,0019
441,00;0,0019
442,00;0,0019
443,00;0,0019
444,00;0,0022
445,00;0,0019
446,00;0,0016
447,00;0,0019
448,00;0,0019
449,00;0,0019
450,00;0,0019
451,00;0,0019
452,00;0,0019
453,00;0,0022
454,00;0,0022
455,00;0,0019
456,00;0,0019
457,00;0,0022
458,00;0,0022
459,00;0,0022
460,00;0,0022
461,00;0,0022
462,00;0,0019
463,00;0,0022
464,00;0,0022
465,00;0,0022
466,00;0,0022
467,00;0,0022
468,00;0,0022
469,00;0,0019
470,00;0,0025
471,00;0,0022
472,00;0,0019
473,00;0,0022
474,00;0,0022
475,00;0,0022
476,00;0,0022
477,00;0,0022
478,00;0,0022
479,00;0,0022
480,00;0,0019
481,00;0,0019
482,00;0,0022
483,00;0,0022
484,00;0,0022
485,00;0,0022
486,00;0,0022
487,00;0,0022
488,00;0,0019
489,00;0,0019
490,00;0,0022
491,00;0,0019
492,00;0,0022
493,00;0,0022
494,00;0,0022
495,00;0,0022
496,00;0,0022
497,00;0,0022
498,00;0,0019
499,00;0,0022
500,00;0,0022
501,00;0,0019
502,00;0,0019
503,00;0,0022
504,00;0,0022
505,00;0,0019
506,00;0,0022
507,00;0,0019
508,00;0,0019
509,00;0,0019
510,00;0,0022
511,00;0,0019
512,00;0,0019
513,00;0,0019
514,00;0,0019
515,00;0,0019
516,00;0,0019
517,00;0,0019
518,00;0,0019
519,00;0,0019
520,00;0,0022
521,00;0,0019
522,00;0,0019
523,00;0,0019
524,00;0,0019
525,00;0,0019
526,00;0,0019
527,00;0,0022
528,00;0,0019
529,00;0,0019
530,00;0,0022
531,00;0,0022
532,00;0,0019
533,00;0,0022
534,00;0,0019
535,00;0,0019
536,00;0,0022
537,00;0,0022
538,00;0,0022
539,00;0,0019
540,00;0,0016
541,00;0,0019
542,00;0,0019
543,00;0,0019
544,00;0,0019
545,00;0,0016
546,00;0,0016
547,00;0,0019
548,00;0,0019
549,00;0,0022
550,00;0,0022
551,00;0,0019
552,00;0,0019
553,00;0,0022
554,00;0,0019
555,00;0,0019
556,00;0,0022
557,00;0,0022
558,00;0,0019
559,00;0,0019
560,00;0,0016
561,00;0,0019
562,00;0,0019
563,00;0,0022
564,00;0,0019
565,00;0,0019
566,00;0,0019
567,00;0,0019
568,00;0,0019
569,00;0,0019
570,00;0,0022
571,00;0,0019
572,00;0,0019
573,00;0,0019
574,00;0,0022
575,00;0,0022
576,00;0,0019
577,00;0,0019
578,00;0,0019
579,00;0,0019
580,00;0,0019
581,00;0,0019
582,00;0,0019
583,00;0,0019
584,00;0,0019
585,00;0,0019
586,00;0,0016
587,00;0,0016
588,00;0,0016
589,00;0,0019
590,00;0,0019
591,00;0,0019
592,00;0,0022
593,00;0,0019
594,00;0,0019
595,00;0,0022
596,00;0,0019
597,00;0,0019
598,00;0,0019
599,00;0,0019
600,00;0,0022
601,00;0,0025
602,00;0,0025
603,00;0,0025
604,00;0,0025
605,00;0,0025
606,00;0,0028
607,00;0,0025
608,00;0,0025
609,00;0,0022
610,00;0,0022
611,00;0,0025
612,00;0,0022
613,00;0,0022
614,00;0,0022
615,00;0,0025
616,00;0,0022
617,00;0,0022
618,00;0,0022
619,00;0,0025
620,00;0,0022
621,00;0,0025
622,00;0,0022
623,00;0,0022
624,00;0,0025
625,00;0,0025
626,00;0,0025
627,00;0,0025
628,00;0,0025
629,00;0,0025
630,00;0,0022
631,00;0,0022
632,00;0,0022
633,00;0,0022
634,00;0,0019
635,00;0,0022
636,00;0,0022
637,00;0,0025
638,00;0,0025
639,00;0,0028
640,00;0,0022
641,00;0,0025
642,00;0,0022
643,00;0,0025
644,00;0,0031
645,00;0,0034
646,00;0,0044
647,00;0,0200
648,00;0,1203
649,00;0,2593
650,00;0,3878
651,00;0,4462
652,00;0,4722
653,00;0,4777
654,00;0,4815
655,00;0,4891
656,00;0,4968
657,00;0,5008
658,00;0,4998
659,00;0,4939
660,00;0,4787
661,00;0,4640
662,00;0,4523
663,00;0,4454
664,00;0,4445
665,00;0,4480
666,00;0,4497
667,00;0,4541
668,00;0,4568
669,00;0,4595
670,00;0,4604
671,00;0,4640
672,00;0,4658
673,00;0,4667
674,00;0,4685
675,00;0,4694
676,00;0,4713
677,00;0,4713
678,00;0,4731
679,00;0,4750
680,00;0,4750
681,00;0,4768
682,00;0,4796
683,00;0,4824
684,00;0,4872
685,00;0,4988
686,00;0,5356
687,00;0,6320
688,00;0,7027
689,00;0,7387
690,00;0,7490
691,00;0,7525
692,00;0,7543
693,00;0,7525
694,00;0,7473
695,00;0,7404
696,00;0,7387
697,00;0,7387
698,00;0,8334
699,00;1,6011
700,00;0,7741
701,00;1,1814
702,00;0,9199
703,00;0,6099
704,00;0,8596
705,00;1,1158
706,00;1,9991
707,00;1,1366
708,00;0,7059
709,00;0,6798
710,00;0,6843
711,00;0,6934
712,00;0,7043
713,00;0,7138
714,00;0,7236
715,00;0,7319
716,00;0,7404
717,00;0,7490
718,00;0,7560
719,00;0,7596
720,00;0,7614
721,00;0,7596
722,00;0,7560
723,00;0,7473
724,00;0,7370
725,00;0,7220
726,00;0,7059
727,00;0,6888
728,00;0,6724
729,00;0,6566
730,00;0,6360
731,00;0,6254
732,00;0,6163
733,00;0,5889
734,00;0,5609
735,00;0,5399
736,00;0,5230
737,00;0,5057
738,00;0,4881
739,00;0,4667
740,00;0,4419
741,00;0,3993
742,00;0,3472
743,00;0,3026
744,00;0,2736
745,00;0,2421
746,00;0,2097
747,00;0,1800
748,00;0,1482
749,00;0,1228
750,00;0,1007
751,00;0,0819
752,00;0,0675
753,00;0,0567
754,00;0,0483
755,00;0,0421
756,00;0,0363
757,00;0,0316
758,00;0,0273
759,00;0,0246
760,00;0,0223
761,00;0,0204
762,00;0,0184
763,00;0,0165
764,00;0,0149
765,00;0,0139
766,00;0,0126
767,00;0,0117
768,00;0,0107
769,00;0,0094
770,00;0,0088
771,00;0,0088
772,00;0,0082
773,00;0,0078
774,00;0,0075
775,00;0,0069
776,00;0,0066
777,00;0,0063
778,00;0,0063
779,00;0,0059
780,00;0,0059
781,00;0,0059
782,00;0,0056
783,00;0,0056
784,00;0,0056
785,00;0,0056
786,00;0,0053
787,00;0,0050
788,00;0,0053
789,00;0,0053
790,00;0,0050
791,00;0,0053
792,00;0,0050
793,00;0,0053
794,00;0,0053
795,00;0,0053
796,00;0,0056
797,00;0,0053
798,00;0,0053
799,00;0,0053
800,00;0,0047
801,00;0,0050
802,00;0,0050
803,00;0,0050
804,00;0,0050
805,00;0,0050
806,00;0,0056
807,00;0,0053
808,00;0,0053
809,00;0,0050
810,00;0,0053
811,00;0,0053
812,00;0,0050
813,00;0,0050
814,00;0,0050
815,00;0,0050
816,00;0,0050
817,00;0,0050
818,00;0,0050
819,00;0,0050
820,00;0,0050
821,00;0,0050
822,00;0,0050
823,00;0,0050
824,00;0,0050
825,00;0,0050
826,00;0,0050
827,00;0,0050
828,00;0,0053
829,00;0,0050
830,00;0,0050
831,00;0,0050
832,00;0,0047
833,00;0,0050
834,00;0,0050
835,00;0,0053
836,00;0,0050
837,00;0,0050
838,00;0,0050
839,00;0,0050
840,00;0,0050
841,00;0,0050
842,00;0,0047
843,00;0,0047
844,00;0,0050
845,00;0,0050
846,00;0,0047
847,00;0,0050
848,00;0,0053
849,00;0,0053
850,00;0,0050
851,00;0,0050
852,00;0,0050
853,00;0,0050
854,00;0,0050
855,00;0,0050
856,00;0,0053
857,00;0,0053
858,00;0,0050
859,00;0,0053
860,00;0,0053
861,00;0,0050
862,00;0,0050
863,00;0,0050
864,00;0,0047
865,00;0,0047
866,00;0,0050
867,00;0,0050
868,00;0,0050
869,00;0,0053
870,00;0,0053
871,00;0,0050
872,00;0,0050
873,00;0,0050
874,00;0,0053
875,00;0,0053
876,00;0,0053
877,00;0,0053
878,00;0,0053
879,00;0,0053
880,00;0,0053
881,00;0,0053
882,00;0,0053
883,00;0,0050
884,00;0,0050
885,00;0,0053
886,00;0,0053
887,00;0,0050
888,00;0,0050
889,00;0,0050
890,00;0,0050
891,00;0,0050
892,00;0,0053
893,00;0,0050
894,00;0,0053
895,00;0,0050
896,00;0,0050
897,00;0,0053
898,00;0,0050
899,00;0,0053
900,00;0,0053
901,00;0,0053
902,00;0,0056
903,00;0,0053
904,00;0,0053
905,00;0,0053
906,00;0,0056
907,00;0,0056
908,00;0,0056
909,00;0,0053
910,00;0,0053
911,00;0,0053
912,00;0,0053
913,00;0,0056
914,00;0,0056
915,00;0,0053
916,00;0,0053
917,00;0,0053
918,00;0,0053
919,00;0,0056
920,00;0,0053
921,00;0,0053
922,00;0,0053
923,00;0,0050
924,00;0,0050
925,00;0,0053
926,00;0,0053
927,00;0,0053
928,00;0,0053
929,00;0,0053
930,00;0,0053
931,00;0,0053
932,00;0,0053
933,00;0,0053
934,00;0,0053
935,00;0,0053
936,00;0,0053
937,00;0,0053
938,00;0,0056
939,00;0,0056
940,00;0,0053
941,00;0,0056
942,00;0,0056
943,00;0,0053
944,00;0,0053
945,00;0,0053
946,00;0,0050
947,00;0,0053
948,00;0,0053
949,00;0,0053
950,00;0,0056
951,00;0,0053
952,00;0,0056
953,00;0,0053
954,00;0,0053
955,00;0,0056
956,00;0,0056
957,00;0,0059
958,00;0,0053
959,00;0,0053
960,00;0,0053
961,00;0,0053
962,00;0,0053
963,00;0,0053
964,00;0,0053
965,00;0,0056
966,00;0,0053
967,00;0,0056
968,00;0,0056
969,00;0,0053
970,00;0,0053
971,00;0,0053
972,00;0,0053
973,00;0,0053
974,00;0,0050
975,00;0,0053
976,00;0,0053
977,00;0,0056
978,00;0,0056
979,00;0,0053
980,00;0,0053
981,00;0,0053
982,00;0,0053
983,00;0,0053
984,00;0,0053
985,00;0,0050
986,00;0,0050
987,00;0,0053
988,00;0,0050
989,00;0,0050
990,00;0,0053
991,00;0,0053
992,00;0,0053
993,00;0,0053
994,00;0,0053
995,00;0,0053
996,00;0,0056
997,00;0,0053
998,00;0,0053
999,00;0,0056
1000,00;0,0053
1001,00;0,0053
1002,00;0,0053
1003,00;0,0053
1004,00;0,0053
1005,00;0,0053
1006,00;0,0056
1007,00;0,0053
1008,00;0,0053
1009,00;0,0053
1010,00;0,0053
1011,00;0,0056
1012,00;0,0053
1013,00;0,0053
1014,00;0,0056
1015,00;0,0053
1016,00;0,0053
1017,00;0,0053
1018,00;0,0053
1019,00;0,0053
1020,00;0,0053
1021,00;0,0050
1022,00;0,0050
1023,00;0,0053
1024,00;0,0053
1025,00;0,0053
1026,00;0,0053
1027,00;0,0053
1028,00;0,0053
1029,00;0,0053
1030,00;0,0053
1031,00;0,0056
1032,00;0,0056
1033,00;0,0053
1034,00;0,0053
1035,00;0,0053
1036,00;0,0053
1037,00;0,0053
1038,00;0,0053
1039,00;0,0053
1040,00;0,0053
1041,00;0,0053
1042,00;0,0053
1043,00;0,0053
1044,00;0,0053
1045,00;0,0053
1046,00;0,0053
1047,00;0,0053
1048,00;0,0053
1049,00;0,0056
1050,00;0,0056
1051,00;0,0056
1052,00;0,0059
1053,00;0,0056
1054,00;0,0056
1055,00;0,0056
1056,00;0,0056
1057,00;0,0056
1058,00;0,0056
1059,00;0,0056
1060,00;0,0059
1061,00;0,0069
1062,00;0,0117
1063,00;0,0722
1064,00;0,2399
1065,00;0,3863
1066,00;0,4604
1067,00;0,4853
1068,00;0,4759
1069,00;0,4621
1070,00;0,4497
1071,00;0,4462
1072,00;0,4402
1073,00;0,4368
1074,00;0,4359
1075,00;0,4368
1076,00;0,4393
1077,00;0,4419
1078,00;0,4454
1079,00;0,4497
1080,00;0,4541
1081,00;0,4568
1082,00;0,4595
1083,00;0,4604
1084,00;0,4621
1085,00;0,4649
1086,00;0,4658
1087,00;0,4667
1088,00;0,4676
1089,00;0,4694
1090,00;0,4703
1091,00;0,4703
1092,00;0,4722
1093,00;0,4731
1094,00;0,4731
1095,00;0,4731
1096,00;0,4740
1097,00;0,4759
1098,00;0,4768
1099,00;0,4777
1100,00;0,4806
1101,00;0,4834
1102,00;0,4862
1103,00;0,4939
1104,00;0,5077
1105,00;0,5410
1106,00;0,6036
1107,00;0,6754
1108,00;0,7220
1109,00;0,7438
1110,00;0,7543
1111,00;0,7578
1112,00;0,7543
1113,00;0,7490
1114,00;0,7404
1115,00;0,7302
1116,00;0,7187
1117,00;0,7090
1118,00;0,6996
1119,00;0,6904
1120,00;0,6843
1121,00;0,6828
1122,00;0,6828
1123,00;0,6843
1124,00;0,6888
1125,00;0,6980
1126,00;0,7059
1127,00;0,7138
1128,00;0,7236
1129,00;0,7336
1130,00;0,7404
1131,00;0,7473
1132,00;0,7525
1133,00;0,7578
1134,00;0,7614
1135,00;0,7650
1136,00;0,7632
1137,00;0,7614
1138,00;0,7525
1139,00;0,7336
1140,00;0,7138
1141,00;0,6873
1142,00;0,6666
1143,00;0,6469
1144,00;0,6254
1145,00;0,6074
1146,00;0,5950
1147,00;0,5877
1148,00;0,5901
1149,00;0,5620
1150,00;0,5453
1151,00;0,5335
1152,00;0,5209
1153,00;0,5087
1154,00;0,4959
1155,00;0,4834
1156,00;0,4703
1157,00;0,4351
1158,00;0,3795
1159,00;0,3191
1160,00;0,2819
1161,00;0,2498
1162,00;0,2240
1163,00;0,1924
1164,00;0,1638
1165,00;0,1357
1166,00;0,1138
1167,00;0,0952
1168,00;0,0804
1169,00;0,0682
1170,00;0,0585
1171,00;0,0500
1172,00;0,0421
1173,00;0,0366
1174,00;0,0319
1175,00;0,0279
1176,00;0,0246
1177,00;0,0223
1178,00;0,0200
1179,00;0,0178
1180,00;0,0155
1181,00;0,0142
1182,00;0,0126
1183,00;0,0117
1184,00;0,0104
1185,00;0,0094
1186,00;0,0085
1187,00;0,0078
1188,00;0,0072
1189,00;0,0069
1190,00;0,0063
1191,00;0,0059
1192,00;0,0053
1193,00;0,0050
1194,00;0,0050
1195,00;0,0047
1196,00;0,0047
1197,00;0,0047
1198,00;0,0044
1199,00;0,0041
1200,00;0,0041
1201,00;0,0044
1202,00;0,0044
1203,00;0,0044
1204,00;0,0041
1205,00;0,0041
1206,00;0,0041
1207,00;0,0041
1208,00;0,0037
1209,00;0,0041
1210,00;0,0041
1211,00;0,0044
1212,00;0,0041
1213,00;0,0037
1214,00;0,0037
1215,00;0,0034
1216,00;0,0031
1217,00;0,0031
1218,00;0,0034
1219,00;0,0031
1220,00;0,0034
1221,00;0,0034
1222,00;0,0031
1223,00;0,0028
1224,00;0,0031
1225,00;0,0031
1226,00;0,0031
1227,00;0,0034
1228,00;0,0031
1229,00;0,0031
1230,00;0,0028
1231,00;0,0034
1232,00;0,0031
1233,00;0,0028
1234,00;0,0031
1235,00;0,0031
1236,00;0,0031
1237,00;0,0031
1238,00;0,0031
1239,00;0,0031
1240,00;0,0031
1241,00;0,0034
1242,00;0,0034
1243,00;0,0034
1244,00;0,0037
1245,00;0,0034
1246,00;0,0031
1247,00;0,0031
1248,00;0,0031
1249,00;0,0037
1250,00;0,0034
1251,00;0,0034
1252,00;0,0034
1253,00;0,0031
1254,00;0,0034
1255,00;0,0031
1256,00;0,0031
1257,00;0,0034
1258,00;0,0034
1259,00;0,0034
1260,00;0,0034
1261,00;0,0034
1262,00;0,0031
1263,00;0,0034
1264,00;0,0034
1265,00;0,0031
1266,00;0,0034
1267,00;0,0034
1268,00;0,0034
1269,00;0,0034
1270,00;0,0034
1271,00;0,0034
1272,00;0,0034
1273,00;0,0034
1274,00;0,0034
1275,00;0,0034
1276,00;0,0034
1277,00;0,0034
1278,00;0,0034
1279,00;0,0037
1280,00;0,0037
1281,00;0,0037
1282,00;0,0037
1283,00;0,0034
1284,00;0,0037
1285,00;0,0034
1286,00;0,0034
1287,00;0,0034
1288,00;0,0034
1289,00;0,0031
1290,00;0,0034
1291,00;0,0034
1292,00;0,0034
1293,00;0,0034
1294,00;0,0034
1295,00;0,0034
1296,00;0,0031
1297,00;0,0031
1298,00;0,0034
1299,00;0,0034
1300,00;0,0034
1301,00;0,0034
1302,00;0,0034
1303,00;0,0034
1304,00;0,0034
1305,00;0,0037
1306,00;0,0034
1307,00;0,0034
1308,00;0,0034
1309,00;0,0034
1310,00;0,0034
1311,00;0,0037
1312,00;0,0031
1313,00;0,0034
1314,00;0,0034
1315,00;0,0037
1316,00;0,0034
1317,00;0,0034
1318,00;0,0034
1319,00;0,0034
1320,00;0,0031
1321,00;0,0034
1322,00;0,0031
1323,00;0,0034
1324,00;0,0031
1325,00;0,0028
1326,00;0,0028
1327,00;0,0028
1328,00;0,0028
1329,00;0,0028
1330,00;0,0028
1331,00;0,0031
1332,00;0,0028
1333,00;0,0028
1334,00;0,0031
1335,00;0,0031
1336,00;0,0028
1337,00;0,0031
1338,00;0,0031
1339,00;0,0031
1340,00;0,0028
1341,00;0,0031
1342,00;0,0031
1343,00;0,0031
1344,00;0,0028
1345,00;0,0028
1346,00;0,0028
1347,00;0,0028
1348,00;0,0028
1349,00;0,0028
1350,00;0,0028
1351,00;0,0028
1352,00;0,0028
1353,00;0,0031
1354,00;0,0031
1355,00;0,0028
1356,00;0,0028
1357,00;0,0025
1358,00;0,0025
1359,00;0,0025
1360,00;0,0022
1361,00;0,0022
1362,00;0,0025
1363,00;0,0028
1364,00;0,0028
1365,00;0,0028
1366,00;0,0028
1367,00;0,0028
1368,00;0,0031
1369,00;0,0031
1370,00;0,0028
1371,00;0,0031
1372,00;0,0028
1373,00;0,0028
1374,00;0,0028
1375,00;0,0028
1376,00;0,0028
1377,00;0,0028
1378,00;0,0028
1379,00;0,0028
1380,00;0,0028
1381,00;0,0028
1382,00;0,0025
1383,00;0,0028
1384,00;0,0031
1385,00;0,0028
1386,00;0,0028
1387,00;0,0031
1388,00;0,0031
1389,00;0,0028
1390,00;0,0028
1391,00;0,0028
1392,00;0,0025
1393,00;0,0025
1394,00;0,0028
1395,00;0,0031
1396,00;0,0031
1397,00;0,0031
1398,00;0,0028
1399,00;0,0028
1400,00;0,0028
1401,00;0,0028
1402,00;0,0028
1403,00;0,0028
1404,00;0,0028
1405,00;0,0028
1406,00;0,0031
1407,00;0,0028
1408,00;0,0028
1409,00;0,0028
1410,00;0,0028
1411,00;0,0028
1412,00;0,0028
1413,00;0,0028
1414,00;0,0028
1415,00;0,0031
1416,00;0,0028
1417,00;0,0028
1418,00;0,0028
1419,00;0,0028
1420,00;0,0028
1421,00;0,0031
1422,00;0,0028
1423,00;0,0028
1424,00;0,0028
1425,00;0,0031
1426,00;0,0028
1427,00;0,0031
1428,00;0,0028
1429,00;0,0028
1430,00;0,0028
1431,00;0,0028
1432,00;0,0028
1433,00;0,0028
1434,00;0,0028
1435,00;0,0028
1436,00;0,0025
1437,00;0,0025
1438,00;0,0025
1439,00;0,0025
1440,00;0,0028
1441,00;0,0028
1442,00;0,0028
1443,00;0,0028
1444,00;0,0025
1445,00;0,0025
1446,00;0,0025
1447,00;0,0025
1448,00;0,0028
1449,00;0,0028
1450,00;0,0028
1451,00;0,0028
1452,00;0,0028
1453,00;0,0028
1454,00;0,0028
1455,00;0,0028
1456,00;0,0028
1457,00;0,0028
1458,00;0,0025
1459,00;0,0028
1460,00;0,0025
1461,00;0,0025
1462,00;0,0025
1463,00;0,0025
1464,00;0,0025
1465,00;0,0025
1466,00;0,0028
1467,00;0,0028
1468,00;0,0028
1469,00;0,0028
1470,00;0,0028
1471,00;0,0028
1472,00;0,0028
1473,00;0,0028
1474,00;0,0028
1475,00;0,0034
1476,00;0,0037
1477,00;0,0044
1478,00;0,0075
1479,00;0,0339
1480,00;0,1711
1481,00;0,2748
1482,00;0,3570
1483,00;0,4853
1484,00;0,4815
1485,00;0,4910
1486,00;0,4824
1487,00;0,4750
1488,00;0,4676
1489,00;0,4568
1490,00;0,4393
1491,00;0,4317
1492,00;0,4317
1493,00;0,4368
1494,00;0,4410
1495,00;0,4445
1496,00;0,4480
1497,00;0,4515
1498,00;0,4532
1499,00;0,4568
1500,00;0,4577
1501,00;0,4595
1502,00;0,4612
1503,00;0,4649
1504,00;0,4658
1505,00;0,4667
1506,00;0,4667
1507,00;0,4676
1508,00;0,4685
1509,00;0,4694
1510,00;0,4703
1511,00;0,4713
1512,00;0,4722
1513,00;0,4731
1514,00;0,4731
1515,00;0,4740
1516,00;0,4759
1517,00;0,4777
1518,00;0,4796
1519,00;0,4843
1520,00;0,4930
1521,00;0,5097
1522,00;0,5486
1523,00;0,6150
1524,00;0,6798
1525,00;0,7203
1526,00;0,7404
1527,00;0,7490
1528,00;0,7525
1529,00;0,7490
1530,00;0,7438
1531,00;0,7353
1532,00;0,7252
1533,00;0,7122
1534,00;0,7027
1535,00;0,6934
1536,00;0,6843
1537,00;0,6783
1538,00;0,6754
1539,00;0,6739
1540,00;0,6768
1541,00;0,6828
1542,00;0,6888
1543,00;0,6980
1544,00;0,7074
1545,00;0,7154
1546,00;0,7236
1547,00;0,7336
1548,00;0,7404
1549,00;0,7473
1550,00;0,7525
1551,00;0,7578
1552,00;0,7596
1553,00;0,7614
1554,00;0,7596
1555,00;0,7507
1556,00;0,7387
1557,00;0,7236
1558,00;0,7043
1559,00;0,6858
1560,00;0,6652
1561,00;0,6455
1562,00;0,6254
1563,00;0,6137
1564,00;0,6124
1565,00;0,5889
1566,00;0,5666
1567,00;0,5442
1568,00;0,5271
1569,00;0,5087
1570,00;0,4949
1571,00;0,4806
1572,00;0,4621
1573,00;0,4368
1574,00;0,4096
1575,00;0,3678
1576,00;0,3191
1577,00;0,2927
1578,00;0,2410
1579,00;0,2052
1580,00;0,1748
1581,00;0,1413
1582,00;0,1150
1583,00;0,0929
1584,00;0,0744
1585,00;0,0606
1586,00;0,0497
1587,00;0,0428
1588,00;0,0363
1589,00;0,0316
1590,00;0,0273
1591,00;0,0240
1592,00;0,0210
1593,00;0,0184
1594,00;0,0162
1595,00;0,0145
1596,00;0,0133
1597,00;0,0120
1598,00;0,0107
1599,00;0,0097
1600,00;0,0085
1601,00;0,0075
1602,00;0,0072
1603,00;0,0066
1604,00;0,0059
1605,00;0,0056
1606,00;0,0053
1607,00;0,0050
1608,00;0,0047
1609,00;0,0044
1610,00;0,0044
1611,00;0,0044
1612,00;0,0044
1613,00;0,0037
1614,00;0,0034
1615,00;0,0034
1616,00;0,0034
1617,00;0,0034
1618,00;0,0034
1619,00;0,0034
1620,00;0,0031
1621,00;0,0034
1622,00;0,0034
1623,00;0,0031
