Created as New Dataset;
s;A
0,00;-0,0000
1,00;0,0003
2,00;-0,0000
3,00;-0,0000
4,00;-0,0000
5,00;-0,0000
6,00;-0,0000
7,00;-0,0000
8,00;-0,0003
9,00;-0,0003
10,00;-0,0003
11,00;-0,0000
12,00;-0,0000
13,00;-0,0000
14,00;-0,0000
15,00;-0,0000
16,00;-0,0003
17,00;-0,0000
18,00;-0,0000
19,00;-0,0000
20,00;-0,0000
21,00;-0,0000
22,00;-0,0000
23,00;-0,0000
24,00;-0,0000
25,00;-0,0000
26,00;-0,0000
27,00;-0,0000
28,00;-0,0000
29,00;-0,0003
30,00;-0,0000
31,00;-0,0000
32,00;-0,0003
33,00;-0,0003
34,00;-0,0003
35,00;-0,0003
36,00;-0,0000
37,00;-0,0003
38,00;-0,0003
39,00;-0,0000
40,00;-0,0000
41,00;-0,0000
42,00;-0,0000
43,00;-0,0003
44,00;-0,0000
45,00;-0,0003
46,00;-0,0000
47,00;-0,0003
48,00;-0,0003
49,00;-0,0003
50,00;-0,0003
51,00;-0,0003
52,00;-0,0003
53,00;-0,0003
54,00;-0,0003
55,00;-0,0000
56,00;-0,0003
57,00;-0,0003
58,00;-0,0003
59,00;-0,0006
60,00;-0,0003
61,00;-0,0000
62,00;-0,0003
63,00;-0,0003
64,00;-0,0006
65,00;-0,0003
66,00;-0,0003
67,00;-0,0003
68,00;-0,0003
69,00;-0,0003
70,00;-0,0003
71,00;-0,0006
72,00;-0,0006
73,00;-0,0006
74,00;-0,0006
75,00;-0,0006
76,00;-0,0003
77,00;-0,0006
78,00;-0,0006
79,00;-0,0006
80,00;-0,0003
81,00;-0,0003
82,00;-0,0003
83,00;-0,0006
84,00;-0,0006
85,00;-0,0006
86,00;-0,0003
87,00;-0,0006
88,00;-0,0006
89,00;-0,0003
90,00;-0,0003
91,00;-0,0003
92,00;-0,0006
93,00;-0,0006
94,00;-0,0006
95,00;-0,0006
96,00;-0,0006
97,00;-0,0006
98,00;-0,0006
99,00;-0,0006
100,00;-0,0006
101,00;-0,0006
102,00;-0,0010
103,00;-0,0006
104,00;-0,0010
105,00;-0,0006
106,00;-0,0010
107,00;-0,0006
108,00;-0,0006
109,00;-0,0010
110,00;-0,0006
111,00;-0,0006
112,00;-0,0010
113,00;-0,0010
114,00;-0,0010
115,00;-0,0010
116,00;-0,0010
117,00;-0,0006
118,00;-0,0006
119,00;-0,0006
120,00;-0,0006
121,00;-0,0006
122,00;-0,0006
123,00;-0,0010
124,00;-0,0010
125,00;-0,0006
126,00;-0,0006
127,00;-0,0010
128,00;-0,0010
129,00;-0,0010
130,00;-0,0010
131,00;-0,0010
132,00;-0,0006
133,00;-0,0006
134,00;-0,0010
135,00;-0,0010
136,00;-0,0010
137,00;-0,0010
138,00;-0,0010
139,00;-0,0006
140,00;-0,0010
141,00;-0,0010
142,00;-0,0010
143,00;-0,0010
144,00;-0,0013
145,00;-0,0010
146,00;-0,0010
147,00;-0,0010
148,00;-0,0010
149,00;-0,0006
150,00;-0,0010
151,00;-0,0013
152,00;-0,0010
153,00;-0,0010
154,00;-0,0010
155,00;-0,0010
156,00;-0,0010
157,00;-0,0010
158,00;-0,0010
159,00;-0,0010
160,00;-0,0010
161,00;-0,0010
162,00;-0,0010
163,00;-0,0010
164,00;-0,0010
165,00;-0,0010
166,00;-0,0013
167,00;-0,0013
168,00;-0,0013
169,00;-0,0013
170,00;-0,0013
171,00;-0,0010
172,00;-0,0013
173,00;-0,0013
174,00;-0,0010
175,00;-0,0013
176,00;-0,0013
177,00;-0,0013
178,00;-0,0013
179,00;-0,0013
180,00;-0,0013
181,00;-0,0010
182,00;-0,0013
183,00;-0,0013
184,00;-0,0013
185,00;-0,0013
186,00;-0,0013
187,00;-0,0013
188,00;-0,0013
189,00;-0,0013
190,00;-0,0013
191,00;-0,0013
192,00;-0,0016
193,00;-0,0013
194,00;-0,0013
195,00;-0,0013
196,00;-0,0013
197,00;-0,0013
198,00;-0,0013
199,00;-0,0013
200,00;-0,0013
201,00;-0,0013
202,00;-0,0013
203,00;-0,0013
204,00;-0,0013
205,00;-0,0013
206,00;-0,0013
207,00;-0,0013
208,00;-0,0016
209,00;-0,0013
210,00;-0,0013
211,00;-0,0013
212,00;-0,0013
213,00;-0,0013
214,00;-0,0013
215,00;-0,0013
216,00;-0,0013
217,00;-0,0013
218,00;-0,0013
219,00;-0,0010
220,00;-0,0010
221,00;-0,0013
222,00;-0,0013
223,00;-0,0010
224,00;-0,0010
225,00;-0,0006
226,00;-0,0006
227,00;0,1479
228,00;0,4590
229,00;0,2326
230,00;0,2695
231,00;0,4089
232,00;0,4553
233,00;0,4526
234,00;0,4173
235,00;0,3581
236,00;0,3066
237,00;0,2731
238,00;0,2483
239,00;0,2315
240,00;0,2195
241,00;0,2104
242,00;0,2073
243,00;0,2068
244,00;0,2084
245,00;0,2094
246,00;0,2099
247,00;0,2110
248,00;0,2115
249,00;0,2126
250,00;0,2141
251,00;0,2141
252,00;0,2147
253,00;0,2157
254,00;0,2163
255,00;0,2157
256,00;0,2163
257,00;0,2173
258,00;0,2168
259,00;0,2163
260,00;0,2173
261,00;0,2173
262,00;0,2173
263,00;0,2179
264,00;0,2184
265,00;0,2184
266,00;0,2206
267,00;0,2216
268,00;0,2243
269,00;0,2298
270,00;0,2489
271,00;0,2936
272,00;0,3769
273,00;0,4879
274,00;0,5896
275,00;0,6695
276,00;0,7108
277,00;0,7226
278,00;0,7260
279,00;0,7209
280,00;0,7125
281,00;0,7025
282,00;0,6945
283,00;0,6865
284,00;0,6818
285,00;0,6787
286,00;0,6787
287,00;0,6818
288,00;0,6865
289,00;0,6929
290,00;0,6993
291,00;0,7075
292,00;0,7175
293,00;0,7243
294,00;0,7312
295,00;0,7400
296,00;0,7400
297,00;0,7330
298,00;0,7175
299,00;0,6961
300,00;0,6680
301,00;0,6347
302,00;0,6024
303,00;0,5604
304,00;0,5104
305,00;0,4618
306,00;0,4182
307,00;0,3777
308,00;0,3414
309,00;0,3159
310,00;0,2956
311,00;0,2695
312,00;0,2472
313,00;0,2326
314,00;0,2265
315,00;0,2163
316,00;0,2073
317,00;0,1990
318,00;0,1939
319,00;0,1854
320,00;0,1780
321,00;0,1737
322,00;0,1670
323,00;0,1599
324,00;0,1465
325,00;0,1327
326,00;0,1184
327,00;0,0997
328,00;0,0860
329,00;0,0717
330,00;0,0570
331,00;0,0450
332,00;0,0365
333,00;0,0305
334,00;0,0260
335,00;0,0216
336,00;0,0179
337,00;0,0165
338,00;0,0145
339,00;0,0128
340,00;0,0112
341,00;0,0088
342,00;0,0072
343,00;0,0055
344,00;0,0042
345,00;0,0036
346,00;0,0026
347,00;0,0019
348,00;0,0013
349,00;0,0006
350,00;-0,0003
351,00;-0,0006
352,00;-0,0006
353,00;-0,0013
354,00;-0,0013
355,00;-0,0019
356,00;-0,0019
357,00;-0,0019
358,00;-0,0023
359,00;-0,0026
360,00;-0,0026
361,00;-0,0026
362,00;-0,0026
363,00;-0,0029
364,00;-0,0029
365,00;-0,0029
366,00;-0,0026
367,00;-0,0029
368,00;-0,0029
369,00;-0,0029
370,00;-0,0029
371,00;-0,0029
372,00;-0,0029
373,00;-0,0029
374,00;-0,0029
375,00;-0,0029
376,00;-0,0032
377,00;-0,0029
378,00;-0,0029
379,00;-0,0032
380,00;-0,0032
381,00;-0,0032
382,00;-0,0032
383,00;-0,0032
384,00;-0,0032
385,00;-0,0029
386,00;-0,0032
387,00;-0,0032
388,00;-0,0029
389,00;-0,0029
390,00;-0,0029
391,00;-0,0029
392,00;-0,0029
393,00;-0,0032
394,00;-0,0032
395,00;-0,0032
396,00;-0,0032
397,00;-0,0032
398,00;-0,0032
399,00;-0,0032
400,00;-0,0032
401,00;-0,0032
402,00;-0,0032
403,00;-0,0032
404,00;-0,0032
405,00;-0,0032
406,00;-0,0035
407,00;-0,0032
408,00;-0,0035
409,00;-0,0032
410,00;-0,0032
411,00;-0,0032
412,00;-0,0032
413,00;-0,0029
414,00;-0,0032
415,00;-0,0032
416,00;-0,0035
417,00;-0,0032
418,00;-0,0032
419,00;-0,0032
420,00;-0,0032
421,00;-0,0032
422,00;-0,0035
423,00;-0,0035
424,00;-0,0035
425,00;-0,0032
426,00;-0,0032
427,00;-0,0032
428,00;-0,0032
429,00;-0,0032
430,00;-0,0032
431,00;-0,0032
432,00;-0,0032
433,00;-0,0032
434,00;-0,0032
435,00;-0,0032
436,00;-0,0032
437,00;-0,0035
438,00;-0,0032
439,00;-0,0032
440,00;-0,0032
441,00;-0,0032
442,00;-0,0032
443,00;-0,0032
444,00;-0,0032
445,00;-0,0032
446,00;-0,0032
447,00;-0,0032
448,00;-0,0032
449,00;-0,0032
450,00;-0,0035
451,00;-0,0032
452,00;-0,0035
453,00;-0,0035
454,00;-0,0035
455,00;-0,0032
456,00;-0,0035
457,00;-0,0032
458,00;-0,0035
459,00;-0,0035
460,00;-0,0032
461,00;-0,0035
462,00;-0,0035
463,00;-0,0032
464,00;-0,0035
465,00;-0,0035
466,00;-0,0032
467,00;-0,0035
468,00;-0,0035
469,00;-0,0035
470,00;-0,0035
471,00;-0,0035
472,00;-0,0035
473,00;-0,0035
474,00;-0,0032
475,00;-0,0035
476,00;-0,0035
477,00;-0,0035
478,00;-0,0035
479,00;-0,0039
480,00;-0,0039
481,00;-0,0035
482,00;-0,0035
483,00;-0,0035
484,00;-0,0035
485,00;-0,0032
486,00;-0,0035
487,00;-0,0035
488,00;-0,0039
489,00;-0,0035
490,00;-0,0039
491,00;-0,0039
492,00;-0,0039
493,00;-0,0039
494,00;-0,0035
495,00;-0,0035
496,00;-0,0035
497,00;-0,0035
498,00;-0,0035
499,00;-0,0035
500,00;-0,0035
501,00;-0,0035
502,00;-0,0039
503,00;-0,0035
504,00;-0,0039
505,00;-0,0039
506,00;-0,0035
507,00;-0,0035
508,00;-0,0032
509,00;-0,0035
510,00;-0,0035
511,00;-0,0035
512,00;-0,0039
513,00;-0,0039
514,00;-0,0035
515,00;-0,0035
516,00;-0,0035
517,00;-0,0035
518,00;-0,0035
519,00;-0,0035
520,00;-0,0039
521,00;-0,0035
522,00;-0,0039
523,00;-0,0035
524,00;-0,0039
525,00;-0,0035
526,00;-0,0035
527,00;-0,0039
528,00;-0,0039
529,00;-0,0039
530,00;-0,0035
531,00;-0,0039
532,00;-0,0039
533,00;-0,0039
534,00;-0,0035
535,00;-0,0035
536,00;-0,0035
537,00;-0,0039
538,00;-0,0039
539,00;-0,0039
540,00;-0,0039
541,00;-0,0039
542,00;-0,0039
543,00;-0,0039
544,00;-0,0039
545,00;-0,0039
546,00;-0,0039
547,00;-0,0039
548,00;-0,0039
549,00;-0,0039
550,00;-0,0039
551,00;-0,0035
552,00;-0,0039
553,00;-0,0042
554,00;-0,0039
555,00;-0,0039
556,00;-0,0039
557,00;-0,0042
558,00;-0,0039
559,00;-0,0042
560,00;-0,0039
561,00;-0,0039
562,00;-0,0039
563,00;-0,0045
564,00;-0,0045
565,00;-0,0045
566,00;-0,0045
567,00;-0,0045
568,00;-0,0045
569,00;-0,0045
570,00;-0,0045
571,00;-0,0045
572,00;-0,0045
573,00;-0,0045
574,00;-0,0045
575,00;-0,0045
576,00;-0,0042
577,00;-0,0045
578,00;-0,0045
579,00;-0,0045
580,00;-0,0045
581,00;-0,0045
582,00;-0,0045
583,00;-0,0045
584,00;-0,0045
585,00;-0,0045
586,00;-0,0045
587,00;-0,0045
588,00;-0,0048
589,00;-0,0048
590,00;-0,0045
591,00;-0,0045
592,00;-0,0045
593,00;-0,0048
594,00;-0,0045
595,00;-0,0045
596,00;-0,0045
597,00;-0,0045
598,00;-0,0045
599,00;-0,0045
600,00;-0,0045
601,00;-0,0045
602,00;-0,0042
603,00;-0,0039
604,00;-0,0042
605,00;-0,0039
606,00;-0,0042
607,00;-0,0042
608,00;-0,0042
609,00;-0,0042
610,00;-0,0042
611,00;-0,0042
612,00;-0,0042
613,00;-0,0042
614,00;-0,0042
615,00;-0,0045
616,00;-0,0045
617,00;-0,0042
618,00;-0,0042
619,00;-0,0042
620,00;-0,0039
621,00;-0,0042
622,00;-0,0042
623,00;-0,0042
624,00;-0,0042
625,00;-0,0042
626,00;-0,0042
627,00;-0,0042
628,00;-0,0042
629,00;-0,0042
630,00;-0,0042
631,00;-0,0045
632,00;-0,0042
633,00;-0,0042
634,00;-0,0039
635,00;-0,0039
636,00;-0,0039
637,00;-0,0042
638,00;-0,0039
639,00;-0,0039
640,00;-0,0039
641,00;-0,0039
642,00;-0,0032
643,00;-0,0026
644,00;0,0003
645,00;0,0429
646,00;0,2195
647,00;0,3260
648,00;0,3500
649,00;0,3500
650,00;0,3421
651,00;0,3371
652,00;0,3350
653,00;0,3267
654,00;0,3079
655,00;0,2823
656,00;0,2547
657,00;0,2298
658,00;0,2136
659,00;0,2078
660,00;0,2068
661,00;0,2084
662,00;0,2099
663,00;0,2115
664,00;0,2110
665,00;0,2115
666,00;0,2120
667,00;0,2120
668,00;0,2126
669,00;0,2131
670,00;0,2141
671,00;0,2141
672,00;0,2141
673,00;0,2152
674,00;0,2141
675,00;0,2141
676,00;0,2147
677,00;0,2147
678,00;0,2147
679,00;0,2147
680,00;0,2152
681,00;0,2157
682,00;0,2157
683,00;0,2173
684,00;0,2211
685,00;0,2238
686,00;0,2331
687,00;0,2600
688,00;0,3315
689,00;0,4471
690,00;0,5581
691,00;0,6417
692,00;0,6881
693,00;0,7108
694,00;0,7175
695,00;0,7175
696,00;0,7108
697,00;0,7025
698,00;0,6929
699,00;0,6849
700,00;0,6787
701,00;0,6756
702,00;0,6741
703,00;0,6772
704,00;0,6818
705,00;0,6881
706,00;0,6977
707,00;0,7058
708,00;0,7158
709,00;0,7243
710,00;0,7330
711,00;0,7418
712,00;0,7418
713,00;0,7365
714,00;0,7192
715,00;0,6881
716,00;0,6431
717,00;0,5921
718,00;0,5420
719,00;0,4970
720,00;0,4526
721,00;0,4131
722,00;0,3761
723,00;0,3400
724,00;0,3079
725,00;0,3179
726,00;0,6518
727,00;0,7295
728,00;0,3219
729,00;0,2455
730,00;0,2276
731,00;0,2206
732,00;0,2136
733,00;0,2037
734,00;0,1950
735,00;0,1894
736,00;0,1854
737,00;0,1810
738,00;0,1742
739,00;0,1698
740,00;0,1674
741,00;0,1960
742,00;0,8178
743,00;0,5735
744,00;0,1218
745,00;0,2309
746,00;0,6236
747,00;0,4224
748,00;0,0454
749,00;0,0082
750,00;0,0036
751,00;0,0023
752,00;0,0013
753,00;0,0010
754,00;-0,0003
755,00;-0,0013
756,00;-0,0016
757,00;-0,0019
758,00;-0,0023
759,00;-0,0029
760,00;-0,0032
761,00;-0,0035
762,00;-0,0035
763,00;-0,0039
764,00;-0,0042
765,00;-0,0042
766,00;-0,0045
767,00;-0,0045
768,00;-0,0045
769,00;-0,0048
770,00;-0,0048
771,00;-0,0052
772,00;-0,0052
773,00;-0,0052
774,00;-0,0052
775,00;-0,0052
776,00;-0,0055
777,00;-0,0052
778,00;-0,0055
779,00;-0,0055
780,00;-0,0055
781,00;-0,0055
782,00;-0,0055
783,00;-0,0058
784,00;-0,0058
785,00;-0,0058
786,00;-0,0055
787,00;-0,0058
788,00;-0,0055
789,00;-0,0058
790,00;-0,0058
791,00;-0,0055
792,00;-0,0055
793,00;-0,0055
794,00;-0,0055
795,00;-0,0058
796,00;-0,0055
797,00;-0,0055
798,00;-0,0055
799,00;-0,0058
800,00;-0,0058
801,00;-0,0058
802,00;-0,0058
803,00;-0,0058
804,00;-0,0058
805,00;-0,0061
806,00;-0,0058
807,00;-0,0058
808,00;-0,0058
809,00;-0,0058
810,00;-0,0061
811,00;-0,0061
812,00;-0,0058
813,00;-0,0061
814,00;-0,0058
815,00;-0,0058
816,00;-0,0058
817,00;-0,0061
818,00;-0,0058
819,00;-0,0058
820,00;-0,0058
821,00;-0,0058
822,00;-0,0058
823,00;-0,0058
824,00;-0,0058
825,00;-0,0061
826,00;-0,0061
827,00;-0,0061
828,00;-0,0061
829,00;-0,0058
830,00;-0,0058
831,00;-0,0058
832,00;-0,0058
833,00;-0,0058
834,00;-0,0061
835,00;-0,0061
836,00;-0,0058
837,00;-0,0061
838,00;-0,0058
839,00;-0,0061
840,00;-0,0061
841,00;-0,0061
842,00;-0,0061
843,00;-0,0061
844,00;-0,0061
845,00;-0,0061
846,00;-0,0061
847,00;-0,0061
848,00;-0,0061
849,00;-0,0061
850,00;-0,0058
851,00;-0,0061
852,00;-0,0058
853,00;-0,0061
854,00;-0,0061
855,00;-0,0061
856,00;-0,0061
857,00;-0,0064
858,00;-0,0061
859,00;-0,0061
860,00;-0,0061
861,00;-0,0061
862,00;-0,0061
863,00;-0,0058
864,00;-0,0061
865,00;-0,0058
866,00;-0,0061
867,00;-0,0061
868,00;-0,0064
869,00;-0,0061
870,00;-0,0061
871,00;-0,0061
872,00;-0,0064
873,00;-0,0061
874,00;-0,0064
875,00;-0,0061
876,00;-0,0061
877,00;-0,0061
878,00;-0,0061
879,00;-0,0061
880,00;-0,0061
881,00;-0,0061
882,00;-0,0061
883,00;-0,0061
884,00;-0,0061
885,00;-0,0061
886,00;-0,0061
887,00;-0,0061
888,00;-0,0061
889,00;-0,0061
890,00;-0,0064
891,00;-0,0061
892,00;-0,0061
893,00;-0,0061
894,00;-0,0061
895,00;-0,0061
896,00;-0,0064
897,00;-0,0064
898,00;-0,0064
899,00;-0,0061
900,00;-0,0061
901,00;-0,0064
902,00;-0,0061
903,00;-0,0061
904,00;-0,0064
905,00;-0,0064
906,00;-0,0064
907,00;-0,0061
908,00;-0,0064
909,00;-0,0064
910,00;-0,0064
911,00;-0,0061
912,00;-0,0064
913,00;-0,0061
914,00;-0,0064
915,00;-0,0061
916,00;-0,0064
917,00;-0,0064
918,00;-0,0064
919,00;-0,0064
920,00;-0,0064
921,00;-0,0061
922,00;-0,0064
923,00;-0,0064
924,00;-0,0064
925,00;-0,0064
926,00;-0,0064
927,00;-0,0064
928,00;-0,0067
929,00;-0,0067
930,00;-0,0064
931,00;-0,0064
932,00;-0,0064
933,00;-0,0064
934,00;-0,0064
935,00;-0,0064
936,00;-0,0064
937,00;-0,0067
938,00;-0,0064
939,00;-0,0064
940,00;-0,0067
941,00;-0,0067
942,00;-0,0067
943,00;-0,0064
944,00;-0,0067
945,00;-0,0067
946,00;-0,0064
947,00;-0,0064
948,00;-0,0064
949,00;-0,0067
950,00;-0,0067
951,00;-0,0067
952,00;-0,0067
953,00;-0,0067
954,00;-0,0067
955,00;-0,0067
956,00;-0,0067
957,00;-0,0067
958,00;-0,0067
959,00;-0,0064
960,00;-0,0067
961,00;-0,0067
962,00;-0,0067
963,00;-0,0067
964,00;-0,0071
965,00;-0,0071
966,00;-0,0067
967,00;-0,0067
968,00;-0,0067
969,00;-0,0067
970,00;-0,0067
971,00;-0,0067
972,00;-0,0071
973,00;-0,0067
974,00;-0,0067
975,00;-0,0067
976,00;-0,0067
977,00;-0,0067
978,00;-0,0067
979,00;-0,0067
980,00;-0,0067
981,00;-0,0071
982,00;-0,0067
983,00;-0,0071
984,00;-0,0071
985,00;-0,0071
986,00;-0,0067
987,00;-0,0067
988,00;-0,0071
989,00;-0,0074
990,00;-0,0077
991,00;-0,0074
992,00;-0,0074
993,00;-0,0074
994,00;-0,0074
995,00;-0,0074
996,00;-0,0074
997,00;-0,0074
998,00;-0,0074
999,00;-0,0074
1000,00;-0,0077
1001,00;-0,0074
1002,00;-0,0074
1003,00;-0,0074
1004,00;-0,0074
1005,00;-0,0074
1006,00;-0,0074
1007,00;-0,0077
1008,00;-0,0077
1009,00;-0,0074
1010,00;-0,0074
1011,00;-0,0074
1012,00;-0,0074
1013,00;-0,0074
1014,00;-0,0077
1015,00;-0,0074
1016,00;-0,0077
1017,00;-0,0074
1018,00;-0,0077
1019,00;-0,0077
1020,00;-0,0077
1021,00;-0,0077
1022,00;-0,0074
1023,00;-0,0077
1024,00;-0,0080
1025,00;-0,0077
1026,00;-0,0074
1027,00;-0,0077
1028,00;-0,0077
1029,00;-0,0077
1030,00;-0,0077
1031,00;-0,0080
1032,00;-0,0077
1033,00;-0,0077
1034,00;-0,0077
1035,00;-0,0077
1036,00;-0,0077
1037,00;-0,0074
1038,00;-0,0077
1039,00;-0,0074
1040,00;-0,0074
1041,00;-0,0077
1042,00;-0,0077
1043,00;-0,0077
1044,00;-0,0077
1045,00;-0,0077
1046,00;-0,0074
1047,00;-0,0077
1048,00;-0,0077
1049,00;-0,0077
1050,00;-0,0074
1051,00;-0,0074
1052,00;-0,0074
1053,00;-0,0074
1054,00;-0,0074
1055,00;-0,0074
1056,00;-0,0071
1057,00;-0,0071
1058,00;-0,0071
1059,00;-0,0064
1060,00;-0,0048
1061,00;0,0052
1062,00;0,0916
1063,00;0,2073
1064,00;0,3879
1065,00;0,4507
1066,00;0,4285
1067,00;0,3785
1068,00;0,3219
1069,00;0,2830
1070,00;0,2623
1071,00;0,2506
1072,00;0,2364
1073,00;0,2222
1074,00;0,2094
1075,00;0,2011
1076,00;0,1995
1077,00;0,2001
1078,00;0,2011
1079,00;0,2026
1080,00;0,2031
1081,00;0,2037
1082,00;0,2047
1083,00;0,2052
1084,00;0,2052
1085,00;0,2063
1086,00;0,2073
1087,00;0,2084
1088,00;0,2089
1089,00;0,2089
1090,00;0,2094
1091,00;0,2099
1092,00;0,2099
1093,00;0,2099
1094,00;0,2104
1095,00;0,2115
1096,00;0,2115
1097,00;0,2115
1098,00;0,2126
1099,00;0,2136
1100,00;0,2136
1101,00;0,2163
1102,00;0,2222
1103,00;0,2381
1104,00;0,2725
1105,00;0,3435
1106,00;0,4498
1107,00;0,5616
1108,00;0,6489
1109,00;0,6945
1110,00;0,7125
1111,00;0,7175
1112,00;0,7158
1113,00;0,7091
1114,00;0,7009
1115,00;0,6929
1116,00;0,6849
1117,00;0,6803
1118,00;0,6772
1119,00;0,6772
1120,00;0,6772
1121,00;0,6803
1122,00;0,6881
1123,00;0,6945
1124,00;0,7042
1125,00;0,7108
1126,00;0,7209
1127,00;0,7295
1128,00;0,7330
1129,00;0,7347
1130,00;0,7295
1131,00;0,7226
1132,00;0,7042
1133,00;0,6741
1134,00;0,6403
1135,00;0,6011
1136,00;0,5557
1137,00;0,5042
1138,00;0,4507
1139,00;0,4048
1140,00;0,3685
1141,00;0,3378
1142,00;0,3125
1143,00;0,2898
1144,00;0,2689
1145,00;0,2501
1146,00;0,2370
1147,00;0,2249
1148,00;0,2152
1149,00;0,2047
1150,00;0,1950
1151,00;0,1879
1152,00;0,1805
1153,00;0,1732
1154,00;0,1679
1155,00;0,1613
1156,00;0,1525
1157,00;0,1420
1158,00;0,1253
1159,00;0,1075
1160,00;0,0952
1161,00;0,0829
1162,00;0,0709
1163,00;0,0574
1164,00;0,0446
1165,00;0,0358
1166,00;0,0284
1167,00;0,0233
1168,00;0,0185
1169,00;0,0148
1170,00;0,0118
1171,00;0,0092
1172,00;0,0075
1173,00;0,0052
1174,00;0,0033
1175,00;0,0019
1176,00;0,0006
1177,00;-0,0003
1178,00;-0,0016
1179,00;-0,0026
1180,00;-0,0032
1181,00;-0,0042
1182,00;-0,0048
1183,00;-0,0055
1184,00;-0,0061
1185,00;-0,0067
1186,00;-0,0071
1187,00;-0,0074
1188,00;-0,0077
1189,00;-0,0077
1190,00;-0,0080
1191,00;-0,0080
1192,00;-0,0077
1193,00;-0,0080
1194,00;-0,0080
1195,00;-0,0080
1196,00;-0,0080
1197,00;-0,0080
1198,00;-0,0083
1199,00;-0,0083
