Created as New Dataset;
s;A
0,00;0,0003
1,00;0,0003
2,00;0,0003
3,00;0,0003
4,00;0,0003
5,00;-0,0000
6,00;0,0003
7,00;-0,0000
8,00;0,0003
9,00;0,0003
10,00;0,0003
11,00;-0,0000
12,00;-0,0000
13,00;-0,0000
14,00;-0,0000
15,00;0,0003
16,00;-0,0000
17,00;0,0003
18,00;0,0003
19,00;0,0003
20,00;-0,0000
21,00;-0,0000
22,00;-0,0000
23,00;0,0003
24,00;-0,0000
25,00;-0,0000
26,00;-0,0000
27,00;-0,0000
28,00;-0,0000
29,00;-0,0000
30,00;-0,0000
31,00;-0,0000
32,00;-0,0000
33,00;-0,0000
34,00;0,0003
35,00;-0,0000
36,00;0,0003
37,00;-0,0000
38,00;0,0003
39,00;0,0003
40,00;-0,0000
41,00;-0,0000
42,00;0,0003
43,00;-0,0000
44,00;0,0003
45,00;0,0003
46,00;-0,0000
47,00;-0,0000
48,00;-0,0000
49,00;-0,0000
50,00;-0,0000
51,00;-0,0000
52,00;0,0003
53,00;0,0003
54,00;0,0003
55,00;0,0003
56,00;0,0003
57,00;0,0003
58,00;-0,0000
59,00;0,0003
60,00;-0,0000
61,00;-0,0000
62,00;-0,0000
63,00;-0,0000
64,00;-0,0000
65,00;-0,0000
66,00;-0,0000
67,00;-0,0000
68,00;-0,0000
69,00;-0,0000
70,00;0,0003
71,00;0,0003
72,00;-0,0000
73,00;-0,0003
74,00;-0,0000
75,00;-0,0000
76,00;-0,0000
77,00;-0,0003
78,00;-0,0000
79,00;-0,0000
80,00;-0,0000
81,00;-0,0000
82,00;-0,0000
83,00;-0,0000
84,00;-0,0000
85,00;0,0003
86,00;-0,0000
87,00;-0,0000
88,00;-0,0000
89,00;-0,0000
90,00;-0,0000
91,00;0,0003
92,00;-0,0000
93,00;-0,0000
94,00;-0,0000
95,00;0,0003
96,00;-0,0000
97,00;-0,0000
98,00;0,0003
99,00;0,0003
100,00;0,0003
101,00;0,0003
102,00;0,0003
103,00;0,0003
104,00;0,0003
105,00;0,0003
106,00;0,0003
107,00;0,0003
108,00;0,0003
109,00;0,0003
110,00;0,0003
111,00;-0,0000
112,00;-0,0000
113,00;-0,0000
114,00;0,0003
115,00;0,0003
116,00;-0,0000
117,00;-0,0000
118,00;0,0003
119,00;-0,0000
120,00;-0,0000
121,00;0,0003
122,00;0,0003
123,00;0,0003
124,00;0,0003
125,00;0,0003
126,00;0,0003
127,00;0,0003
128,00;0,0003
129,00;0,0003
130,00;0,0003
131,00;0,0003
132,00;0,0006
133,00;-0,0000
134,00;-0,0000
135,00;0,0003
136,00;0,0003
137,00;-0,0000
138,00;0,0003
139,00;0,0003
140,00;0,0003
141,00;0,0003
142,00;0,0003
143,00;0,0003
144,00;0,0003
145,00;0,0006
146,00;0,0006
147,00;-0,0000
148,00;0,0003
149,00;0,0003
150,00;0,0003
151,00;-0,0000
152,00;0,0003
153,00;0,0003
154,00;-0,0000
155,00;0,0003
156,00;0,0003
157,00;0,0003
158,00;0,0003
159,00;0,0003
160,00;-0,0000
161,00;0,0003
162,00;-0,0000
163,00;0,0003
164,00;-0,0000
165,00;0,0003
166,00;0,0003
167,00;0,0003
168,00;0,0003
169,00;0,0006
170,00;0,0003
171,00;0,0006
172,00;0,0003
173,00;0,0003
174,00;0,0003
175,00;0,0003
176,00;-0,0000
177,00;0,0003
178,00;0,0003
179,00;0,0003
180,00;0,0003
181,00;0,0003
182,00;0,0003
183,00;0,0003
184,00;-0,0000
185,00;0,0003
186,00;0,0006
187,00;0,0003
188,00;0,0003
189,00;0,0003
190,00;0,0003
191,00;0,0003
192,00;0,0003
193,00;0,0003
194,00;0,0003
195,00;0,0006
196,00;0,0003
197,00;0,0003
198,00;0,0006
199,00;0,0003
200,00;0,0003
201,00;0,0003
202,00;0,0003
203,00;0,0003
204,00;0,0003
205,00;0,0003
206,00;0,0003
207,00;0,0003
208,00;0,0006
209,00;0,0003
210,00;0,0003
211,00;0,0003
212,00;0,0006
213,00;0,0006
214,00;0,0006
215,00;0,0003
216,00;0,0003
217,00;0,0003
218,00;0,0003
219,00;0,0003
220,00;0,0003
221,00;0,0009
222,00;0,0028
223,00;0,0043
224,00;0,0086
225,00;0,0894
226,00;0,2185
227,00;0,2418
228,00;0,2371
229,00;0,2251
230,00;0,2125
231,00;0,2071
232,00;0,2036
233,00;0,1926
234,00;0,1762
235,00;0,1596
236,00;0,1475
237,00;0,1394
238,00;0,1352
239,00;0,1340
240,00;0,1340
241,00;0,1336
242,00;0,1331
243,00;0,1331
244,00;0,1327
245,00;0,1336
246,00;0,1331
247,00;0,1340
248,00;0,1340
249,00;0,1340
250,00;0,1344
251,00;0,1344
252,00;0,1344
253,00;0,1348
254,00;0,1361
255,00;0,1369
256,00;0,1361
257,00;0,1365
258,00;0,1361
259,00;0,1361
260,00;0,1356
261,00;0,1365
262,00;0,1365
263,00;0,1356
264,00;0,1365
265,00;0,1386
266,00;0,1407
267,00;0,1462
268,00;0,1605
269,00;0,2051
270,00;0,3023
271,00;0,4358
272,00;0,5569
273,00;0,6376
274,00;0,6808
275,00;0,7017
276,00;0,7095
277,00;0,7064
278,00;0,7017
279,00;0,6956
280,00;0,6881
281,00;0,6822
282,00;0,6793
283,00;0,6778
284,00;0,6808
285,00;0,6852
286,00;0,6926
287,00;0,7033
288,00;0,7126
289,00;0,7221
290,00;0,7336
291,00;0,7436
292,00;0,7504
293,00;0,7385
294,00;0,7079
295,00;0,6511
296,00;0,5580
297,00;0,4723
298,00;0,4084
299,00;0,3611
300,00;0,3223
301,00;0,2872
302,00;0,2531
303,00;0,2251
304,00;0,2051
305,00;0,1897
306,00;0,1785
307,00;0,1676
308,00;0,1627
309,00;0,2287
310,00;0,5418
311,00;0,6021
312,00;0,2313
313,00;0,1424
314,00;0,1323
315,00;0,1286
316,00;0,1258
317,00;0,1249
318,00;0,1377
319,00;0,1601
320,00;0,1694
321,00;0,1553
322,00;0,1509
323,00;0,1294
324,00;0,1185
325,00;0,1024
326,00;0,0824
327,00;0,0657
328,00;0,0504
329,00;0,0379
330,00;0,0297
331,00;0,0241
332,00;0,0197
333,00;0,0171
334,00;0,0152
335,00;0,0133
336,00;0,0121
337,00;0,0108
338,00;0,0099
339,00;0,0086
340,00;0,0080
341,00;0,0068
342,00;0,0061
343,00;0,0058
344,00;0,0049
345,00;0,0046
346,00;0,0043
347,00;0,0037
348,00;0,0034
349,00;0,0031
350,00;0,0031
351,00;0,0028
352,00;0,0021
353,00;0,0018
354,00;0,0018
355,00;0,0015
356,00;0,0015
357,00;0,0015
358,00;0,0012
359,00;0,0012
360,00;0,0012
361,00;0,0009
362,00;0,0009
363,00;0,0009
364,00;0,0009
365,00;0,0009
366,00;0,0009
367,00;0,0009
368,00;0,0006
369,00;0,0006
370,00;0,0009
371,00;0,0006
372,00;0,0006
373,00;0,0006
374,00;0,0009
375,00;0,0009
376,00;0,0006
377,00;0,0006
378,00;0,0006
379,00;0,0006
380,00;0,0006
381,00;0,0003
382,00;0,0003
383,00;0,0006
384,00;0,0009
385,00;0,0009
386,00;0,0009
387,00;0,0009
388,00;0,0006
389,00;0,0009
390,00;0,0009
391,00;0,0006
392,00;0,0006
393,00;0,0009
394,00;0,0009
395,00;0,0006
396,00;0,0006
397,00;0,0006
398,00;0,0006
399,00;0,0006
400,00;0,0009
401,00;0,0009
402,00;0,0006
403,00;0,0006
404,00;0,0006
405,00;0,0006
406,00;0,0006
407,00;0,0006
408,00;0,0006
409,00;0,0006
410,00;0,0009
411,00;0,0009
412,00;0,0009
413,00;0,0009
414,00;0,0006
415,00;0,0009
416,00;0,0006
417,00;0,0006
418,00;0,0006
419,00;0,0009
420,00;0,0009
421,00;0,0006
422,00;0,0006
423,00;0,0006
424,00;0,0006
425,00;0,0009
426,00;0,0006
427,00;0,0009
428,00;0,0006
429,00;0,0006
430,00;0,0006
431,00;0,0006
432,00;0,0009
433,00;0,0009
434,00;0,0006
435,00;0,0003
436,00;0,0006
437,00;0,0006
438,00;0,0009
439,00;0,0009
440,00;0,0006
441,00;0,0006
442,00;0,0009
443,00;0,0009
444,00;0,0006
445,00;0,0006
446,00;0,0006
447,00;0,0006
448,00;0,0006
449,00;0,0009
450,00;0,0009
451,00;0,0009
452,00;0,0009
453,00;0,0009
454,00;0,0009
455,00;0,0009
456,00;0,0006
457,00;0,0009
458,00;0,0006
459,00;0,0009
460,00;0,0009
461,00;0,0006
462,00;0,0009
463,00;0,0009
464,00;0,0009
465,00;0,0006
466,00;0,0006
467,00;0,0006
468,00;0,0006
469,00;0,0009
470,00;0,0009
471,00;0,0009
472,00;0,0009
473,00;0,0006
474,00;0,0006
475,00;0,0009
476,00;0,0006
477,00;0,0006
478,00;0,0006
479,00;0,0009
480,00;0,0006
481,00;0,0003
482,00;0,0006
483,00;0,0006
484,00;0,0006
485,00;0,0009
486,00;0,0009
487,00;0,0006
488,00;0,0006
489,00;0,0009
490,00;0,0006
491,00;0,0006
492,00;0,0006
493,00;0,0009
494,00;0,0009
495,00;0,0009
496,00;0,0006
497,00;0,0006
498,00;0,0009
499,00;0,0009
500,00;0,0006
501,00;0,0009
502,00;0,0009
503,00;0,0009
504,00;0,0006
505,00;0,0009
506,00;0,0006
507,00;0,0009
508,00;0,0009
509,00;0,0006
510,00;0,0009
511,00;0,0009
512,00;0,0009
513,00;0,0009
514,00;0,0009
515,00;0,0009
516,00;0,0009
517,00;0,0006
518,00;0,0009
519,00;0,0006
520,00;0,0006
521,00;0,0009
522,00;0,0009
523,00;0,0006
524,00;0,0009
525,00;0,0009
526,00;0,0006
527,00;0,0006
528,00;0,0009
529,00;0,0009
530,00;0,0009
531,00;0,0009
532,00;0,0009
533,00;0,0009
534,00;0,0009
535,00;0,0009
536,00;0,0009
537,00;0,0009
538,00;0,0009
539,00;0,0012
540,00;0,0009
541,00;0,0012
542,00;0,0009
543,00;0,0009
544,00;0,0012
545,00;0,0009
546,00;0,0009
547,00;0,0012
548,00;0,0012
549,00;0,0012
550,00;0,0006
551,00;0,0006
552,00;0,0009
553,00;0,0009
554,00;0,0012
555,00;0,0012
556,00;0,0012
557,00;0,0012
558,00;0,0012
559,00;0,0009
560,00;0,0009
561,00;0,0012
562,00;0,0012
563,00;0,0012
564,00;0,0009
565,00;0,0009
566,00;0,0012
567,00;0,0009
568,00;0,0012
569,00;0,0009
570,00;0,0009
571,00;0,0009
572,00;0,0009
573,00;0,0009
574,00;0,0009
575,00;0,0009
576,00;0,0009
577,00;0,0009
578,00;0,0012
579,00;0,0012
580,00;0,0012
581,00;0,0012
582,00;0,0012
583,00;0,0012
584,00;0,0009
585,00;0,0012
586,00;0,0012
587,00;0,0009
588,00;0,0012
589,00;0,0012
590,00;0,0009
591,00;0,0012
592,00;0,0012
593,00;0,0012
594,00;0,0009
595,00;0,0009
596,00;0,0015
597,00;0,0015
598,00;0,0012
599,00;0,0012
600,00;0,0012
601,00;0,0018
602,00;0,0018
603,00;0,0018
604,00;0,0015
605,00;0,0015
606,00;0,0018
607,00;0,0018
608,00;0,0012
609,00;0,0012
610,00;0,0012
611,00;0,0015
612,00;0,0015
613,00;0,0015
614,00;0,0015
615,00;0,0012
616,00;0,0012
617,00;0,0012
618,00;0,0009
619,00;0,0009
620,00;0,0009
621,00;0,0009
622,00;0,0009
623,00;0,0012
624,00;0,0009
625,00;0,0009
626,00;0,0015
627,00;0,0015
628,00;0,0015
629,00;0,0012
630,00;0,0015
631,00;0,0015
632,00;0,0015
633,00;0,0015
634,00;0,0015
635,00;0,0015
636,00;0,0018
637,00;0,0024
638,00;0,0024
639,00;0,0028
640,00;0,0040
641,00;0,0336
642,00;0,1579
643,00;0,2843
644,00;0,2814
645,00;0,2614
646,00;0,2418
647,00;0,2297
648,00;0,2282
649,00;0,2297
650,00;0,2241
651,00;0,2120
652,00;0,1964
653,00;0,1813
654,00;0,1636
655,00;0,1483
656,00;0,1386
657,00;0,1344
658,00;0,1323
659,00;0,1331
660,00;0,1331
661,00;0,1331
662,00;0,1340
663,00;0,1336
664,00;0,1331
665,00;0,1336
666,00;0,1348
667,00;0,1344
668,00;0,1348
669,00;0,1344
670,00;0,1352
671,00;0,1352
672,00;0,1361
673,00;0,1352
674,00;0,1352
675,00;0,1340
676,00;0,1348
677,00;0,1361
678,00;0,1365
679,00;0,1369
680,00;0,1369
681,00;0,1373
682,00;0,1377
683,00;0,1394
684,00;0,1441
685,00;0,1548
686,00;0,1878
687,00;0,2808
688,00;0,4084
689,00;0,5160
690,00;0,5972
691,00;0,6511
692,00;0,6852
693,00;0,7017
694,00;0,7064
695,00;0,7064
696,00;0,7017
697,00;0,6971
698,00;0,6926
699,00;0,6896
700,00;0,6881
701,00;0,6896
702,00;0,6941
703,00;0,7002
704,00;0,7064
705,00;0,7158
706,00;0,7270
707,00;0,7352
708,00;0,7436
709,00;0,7487
710,00;0,7436
711,00;0,7142
712,00;0,6350
713,00;0,5471
714,00;0,4823
715,00;0,4358
716,00;0,3969
717,00;0,3611
718,00;0,3281
719,00;0,2962
720,00;0,2665
721,00;0,2445
722,00;0,2272
723,00;0,2075
724,00;0,1916
725,00;0,1762
726,00;0,1672
727,00;0,1588
728,00;0,1483
729,00;0,1424
730,00;0,1369
731,00;0,1327
732,00;0,1286
733,00;0,1266
734,00;0,1262
735,00;0,1294
736,00;0,1453
737,00;0,1531
738,00;0,1588
739,00;0,1483
740,00;0,1348
741,00;0,1153
742,00;0,0936
743,00;0,0718
744,00;0,0542
745,00;0,0402
746,00;0,0303
747,00;0,0235
748,00;0,0193
749,00;0,0171
750,00;0,0152
751,00;0,0136
752,00;0,0121
753,00;0,0111
754,00;0,0099
755,00;0,0089
756,00;0,0083
757,00;0,0077
758,00;0,0071
759,00;0,0065
760,00;0,0055
761,00;0,0052
762,00;0,0049
763,00;0,0040
764,00;0,0040
765,00;0,0037
766,00;0,0034
767,00;0,0031
768,00;0,0028
769,00;0,0028
770,00;0,0024
771,00;0,0024
772,00;0,0024
773,00;0,0021
774,00;0,0021
775,00;0,0018
776,00;0,0018
777,00;0,0018
778,00;0,0018
779,00;0,0018
780,00;0,0015
781,00;0,0015
782,00;0,0015
783,00;0,0015
784,00;0,0012
785,00;0,0015
786,00;0,0015
787,00;0,0015
788,00;0,0015
789,00;0,0018
790,00;0,0015
791,00;0,0012
792,00;0,0015
793,00;0,0018
794,00;0,0015
795,00;0,0012
796,00;0,0015
797,00;0,0015
798,00;0,0015
799,00;0,0018
800,00;0,0015
801,00;0,0015
802,00;0,0015
803,00;0,0012
804,00;0,0015
805,00;0,0015
806,00;0,0015
807,00;0,0015
808,00;0,0015
809,00;0,0012
810,00;0,0015
811,00;0,0015
812,00;0,0015
813,00;0,0018
814,00;0,0015
815,00;0,0015
816,00;0,0018
817,00;0,0018
818,00;0,0015
819,00;0,0015
820,00;0,0015
821,00;0,0015
822,00;0,0015
823,00;0,0015
824,00;0,0018
825,00;0,0015
826,00;0,0015
827,00;0,0015
828,00;0,0015
829,00;0,0018
830,00;0,0015
831,00;0,0018
832,00;0,0015
833,00;0,0012
834,00;0,0015
835,00;0,0015
836,00;0,0015
837,00;0,0015
838,00;0,0018
839,00;0,0018
840,00;0,0018
841,00;0,0015
842,00;0,0015
843,00;0,0018
844,00;0,0018
845,00;0,0015
846,00;0,0015
847,00;0,0015
848,00;0,0015
849,00;0,0018
850,00;0,0018
851,00;0,0018
852,00;0,0018
853,00;0,0018
854,00;0,0018
855,00;0,0015
856,00;0,0018
857,00;0,0018
858,00;0,0015
859,00;0,0015
860,00;0,0018
861,00;0,0018
862,00;0,0018
863,00;0,0021
864,00;0,0018
865,00;0,0015
866,00;0,0018
867,00;0,0018
868,00;0,0015
869,00;0,0018
870,00;0,0021
871,00;0,0018
872,00;0,0015
873,00;0,0015
874,00;0,0015
875,00;0,0018
876,00;0,0018
877,00;0,0015
878,00;0,0015
879,00;0,0015
880,00;0,0015
881,00;0,0015
882,00;0,0015
883,00;0,0015
884,00;0,0018
885,00;0,0015
886,00;0,0015
887,00;0,0018
888,00;0,0018
889,00;0,0015
890,00;0,0015
891,00;0,0018
892,00;0,0015
893,00;0,0015
894,00;0,0015
895,00;0,0015
896,00;0,0015
897,00;0,0015
898,00;0,0012
899,00;0,0015
900,00;0,0015
901,00;0,0015
902,00;0,0015
903,00;0,0015
904,00;0,0015
905,00;0,0015
906,00;0,0015
907,00;0,0015
908,00;0,0015
909,00;0,0018
910,00;0,0018
911,00;0,0018
912,00;0,0018
913,00;0,0015
914,00;0,0018
915,00;0,0018
916,00;0,0018
917,00;0,0018
918,00;0,0018
919,00;0,0018
920,00;0,0015
921,00;0,0018
922,00;0,0018
923,00;0,0018
924,00;0,0015
925,00;0,0015
926,00;0,0018
927,00;0,0018
928,00;0,0018
929,00;0,0018
930,00;0,0021
931,00;0,0018
932,00;0,0018
933,00;0,0015
934,00;0,0015
935,00;0,0015
936,00;0,0012
937,00;0,0015
938,00;0,0015
939,00;0,0018
940,00;0,0015
941,00;0,0018
942,00;0,0018
943,00;0,0018
944,00;0,0018
945,00;0,0018
946,00;0,0015
947,00;0,0015
948,00;0,0012
949,00;0,0018
950,00;0,0018
951,00;0,0018
952,00;0,0018
953,00;0,0015
954,00;0,0015
955,00;0,0015
956,00;0,0015
957,00;0,0015
958,00;0,0018
959,00;0,0015
960,00;0,0015
961,00;0,0018
962,00;0,0018
963,00;0,0018
964,00;0,0015
965,00;0,0015
966,00;0,0015
967,00;0,0015
968,00;0,0012
969,00;0,0012
970,00;0,0015
971,00;0,0015
972,00;0,0018
973,00;0,0015
974,00;0,0015
975,00;0,0015
976,00;0,0015
977,00;0,0012
978,00;0,0015
979,00;0,0015
980,00;0,0018
981,00;0,0018
982,00;0,0018
983,00;0,0015
984,00;0,0018
985,00;0,0018
986,00;0,0015
987,00;0,0018
988,00;0,0018
989,00;0,0018
990,00;0,0018
991,00;0,0018
992,00;0,0018
993,00;0,0018
994,00;0,0015
995,00;0,0015
996,00;0,0018
997,00;0,0018
998,00;0,0018
999,00;0,0018
1000,00;0,0015
1001,00;0,0012
1002,00;0,0015
1003,00;0,0015
1004,00;0,0018
1005,00;0,0015
1006,00;0,0018
1007,00;0,0015
1008,00;0,0015
1009,00;0,0015
1010,00;0,0018
1011,00;0,0015
1012,00;0,0012
1013,00;0,0015
1014,00;0,0015
1015,00;0,0012
1016,00;0,0015
1017,00;0,0012
1018,00;0,0015
1019,00;0,0015
1020,00;0,0015
1021,00;0,0015
1022,00;0,0015
1023,00;0,0018
1024,00;0,0018
1025,00;0,0015
1026,00;0,0015
1027,00;0,0015
1028,00;0,0018
1029,00;0,0015
1030,00;0,0015
1031,00;0,0015
1032,00;0,0015
1033,00;0,0015
1034,00;0,0012
1035,00;0,0015
1036,00;0,0015
1037,00;0,0015
1038,00;0,0012
1039,00;0,0012
1040,00;0,0009
1041,00;0,0012
1042,00;0,0015
1043,00;0,0018
1044,00;0,0015
1045,00;0,0018
1046,00;0,0018
1047,00;0,0018
1048,00;0,0015
1049,00;0,0018
1050,00;0,0015
1051,00;0,0018
1052,00;0,0015
1053,00;0,0018
1054,00;0,0024
1055,00;0,0031
1056,00;0,0040
1057,00;0,0080
1058,00;0,0989
1059,00;0,2586
1060,00;0,3366
1061,00;0,3562
1062,00;0,3542
1063,00;0,3473
1064,00;0,3287
1065,00;0,3122
1066,00;0,2944
1067,00;0,2653
1068,00;0,2272
1069,00;0,1911
1070,00;0,1645
1071,00;0,1466
1072,00;0,1369
1073,00;0,1327
1074,00;0,1311
1075,00;0,1319
1076,00;0,1315
1077,00;0,1315
1078,00;0,1315
1079,00;0,1323
1080,00;0,1331
1081,00;0,1340
1082,00;0,1344
1083,00;0,1352
1084,00;0,1348
1085,00;0,1348
1086,00;0,1356
1087,00;0,1348
1088,00;0,1348
1089,00;0,1352
1090,00;0,1356
1091,00;0,1352
1092,00;0,1356
1093,00;0,1356
1094,00;0,1365
1095,00;0,1365
1096,00;0,1361
1097,00;0,1369
1098,00;0,1382
1099,00;0,1398
1100,00;0,1428
1101,00;0,1526
1102,00;0,1776
1103,00;0,2277
1104,00;0,3294
1105,00;0,4786
1106,00;0,6045
1107,00;0,6735
1108,00;0,7033
1109,00;0,7142
1110,00;0,7158
1111,00;0,7110
1112,00;0,7033
1113,00;0,6941
1114,00;0,6866
1115,00;0,6808
1116,00;0,6778
1117,00;0,6793
1118,00;0,6822
1119,00;0,6881
1120,00;0,6941
1121,00;0,7017
1122,00;0,7110
1123,00;0,7221
1124,00;0,7319
1125,00;0,7385
1126,00;0,7402
1127,00;0,7369
1128,00;0,7270
1129,00;0,6926
1130,00;0,6363
1131,00;0,5624
1132,00;0,4926
1133,00;0,4358
1134,00;0,3871
1135,00;0,3373
1136,00;0,2902
1137,00;0,2531
1138,00;0,2282
1139,00;0,2100
1140,00;0,1949
1141,00;0,1841
1142,00;0,1735
1143,00;0,1650
1144,00;0,1539
1145,00;0,1475
1146,00;0,1428
1147,00;0,1382
1148,00;0,1340
1149,00;0,1303
1150,00;0,1266
1151,00;0,1290
1152,00;0,1415
1153,00;0,1483
1154,00;0,1466
1155,00;0,1340
1156,00;0,1274
1157,00;0,1105
1158,00;0,0970
1159,00;0,0831
1160,00;0,0664
1161,00;0,0514
1162,00;0,0396
1163,00;0,0310
1164,00;0,0258
1165,00;0,0229
1166,00;0,0206
1167,00;0,0184
1168,00;0,0158
1169,00;0,0149
1170,00;0,0139
1171,00;0,0127
1172,00;0,0117
1173,00;0,0111
1174,00;0,0102
1175,00;0,0092
1176,00;0,0083
1177,00;0,0077
1178,00;0,0074
1179,00;0,0065
1180,00;0,0058
1181,00;0,0058
1182,00;0,0074
1183,00;0,0074
1184,00;0,0058
1185,00;0,0049
1186,00;0,0040
1187,00;0,0034
1188,00;0,0034
1189,00;0,0031
1190,00;0,0028
1191,00;0,0028
1192,00;0,0028
1193,00;0,0028
1194,00;0,0028
1195,00;0,0024
1196,00;0,0028
1197,00;0,0024
1198,00;0,0021
1199,00;0,0018
1200,00;0,0021
1201,00;0,0021
1202,00;0,0018
1203,00;0,0018
1204,00;0,0018
1205,00;0,0018
1206,00;0,0018
1207,00;0,0018
1208,00;0,0018
1209,00;0,0018
1210,00;0,0021
1211,00;0,0018
1212,00;0,0021
1213,00;0,0018
1214,00;0,0021
1215,00;0,0018
1216,00;0,0018
1217,00;0,0015
1218,00;0,0015
1219,00;0,0015
1220,00;0,0018
1221,00;0,0018
1222,00;0,0018
1223,00;0,0018
